Voltage(mV)	Current(mA/cm2)	Time(s)
-49.931802	24.197076	0.000000
-39.932400	24.221053	0.218750
-29.920800	24.239181	0.453125
-19.922899	24.273450	0.671875
-9.927510	24.270876	0.890625
0.076652	24.269123	1.125000
10.072600	24.259297	1.343750
20.063501	24.231812	1.578125
30.077299	24.215906	1.796875
40.073399	24.204913	2.015625
50.070599	24.173098	2.250000
60.079299	24.134737	2.468750
70.075400	24.104562	2.687500
80.072597	24.123041	2.921875
90.083502	24.133100	3.140625
100.079000	24.121053	3.375000
110.072002	24.089707	3.593750
120.088004	24.047018	3.828125
130.080000	24.014387	4.046875
140.077993	23.975089	4.265625
150.086999	23.934151	4.500000
160.082996	23.905381	4.718750
170.077994	23.870876	4.937500
180.088997	23.828071	5.218750
190.083995	23.767368	5.437500
200.096995	23.761405	5.656250
210.091993	23.786668	5.890625
220.084995	23.779182	6.109375
230.097994	23.758363	6.328125
240.090996	23.727602	6.562500
250.084013	23.695907	6.781250
260.098010	23.659297	7.015625
270.087987	23.616374	7.234375
280.084014	23.590526	7.453125
290.095001	23.545847	7.687500
300.090998	23.507369	7.906250
310.084999	23.469707	8.140625
320.098013	23.423509	8.359375
330.091000	23.373683	8.578125
340.086013	23.305147	8.812500
350.098014	23.239649	9.031250
360.087007	23.173569	9.265625
370.086014	23.117545	9.484375
380.095989	23.065497	9.703125
390.091985	23.031929	9.937500
400.101990	22.988421	10.156250
410.097986	22.913683	10.375000
420.091003	22.832515	10.609375
430.099994	22.724795	10.828125
440.097004	22.649122	11.062500
450.085998	22.616375	11.281250
460.101992	22.549942	11.500000
470.093995	22.487953	11.734375
480.089009	22.396374	11.953125
490.098000	22.308537	12.187500
500.092030	22.195789	12.406250
510.088980	22.094269	12.625000
520.099998	21.978713	12.859375
530.093014	21.849006	13.078125
540.085018	21.731228	13.312500
550.100982	21.608772	13.531250
560.091972	21.467018	13.750000
570.084989	21.301989	13.984375
580.097020	21.104445	14.203125
590.090990	20.854386	14.437500
600.103021	20.698831	14.656250
610.092998	20.449707	14.875000
620.090008	20.240350	15.109375
630.102992	20.003860	15.328125
640.093982	19.788889	15.562500
650.084019	19.556491	15.781250
660.099030	19.318012	16.000000
670.087993	19.008305	16.234375
680.081010	18.726198	16.453125
690.096021	18.445497	16.671875
700.084984	18.142339	16.906250
710.078001	17.742690	17.125000
720.089018	17.407368	17.359375
730.086982	17.066316	17.578125
740.077972	16.797077	17.796875
750.091016	16.416959	18.031250
760.080993	15.921169	18.250000
770.072997	15.567369	18.484375
780.084014	15.036023	18.703125
790.078998	14.742105	18.921875
800.095022	14.131345	19.156250
810.087025	13.747368	19.375000
820.080996	13.176608	19.609375
830.092013	12.665030	19.828125
840.090990	12.134737	20.046875
850.082994	11.565602	20.312500
860.090017	10.857182	20.546875
870.083988	10.272959	20.765625
880.075991	9.540935	21.000000
890.087008	8.822409	21.218750
900.077999	7.870819	21.437500
910.072029	7.247895	21.671875
920.081973	6.546258	21.890625
930.074990	5.705790	22.125000
940.069973	4.709661	22.343750
950.076997	3.808421	22.562500
960.070014	2.830994	22.796875
970.061004	1.914082	23.015625
980.073988	0.702192	23.281250
990.061998	-0.485593	23.500000
1000.069976	-1.742222	23.734375
1010.470033	-3.058035	23.953125
1020.480037	-4.382445	24.187500
1030.460000	-5.807544	24.406250
1040.429950	-7.304807	24.625000
1050.519943	-8.758701	24.859375
1060.490012	-10.299485	25.078125
1070.459962	-11.969708	25.312500
1080.430031	-13.638597	25.531250
1090.520024	-15.326550	25.750000
1100.499988	-17.095322	25.984375
1100.499988	-17.016023	26.203125
1090.510011	-15.254269	26.437500
1080.440044	-13.592514	26.656250
1070.459962	-11.865146	26.875000
1060.479999	-10.262292	27.109375
1050.510049	-8.624994	27.328125
1040.429950	-7.242854	27.562500
1030.460000	-5.650421	27.781250
1020.480037	-4.225427	28.000000
1010.489941	-2.808901	28.234375
1000.069976	-1.550012	28.453125
990.063012	-0.206239	28.687500
980.076015	1.026705	28.906250
970.062017	2.197532	29.125000
960.071981	3.282620	29.359375
950.075984	4.160023	29.578125
940.066993	5.293824	29.812500
930.069029	6.213637	30.031250
920.077026	7.145894	30.250000
910.070002	7.986152	30.484375
900.075972	8.812643	30.703125
890.084982	9.514562	30.937500
880.070984	10.374971	31.156250
870.078981	11.085111	31.375000
860.083997	11.650678	31.609375
850.072980	12.247486	31.828125
840.083003	12.917426	32.062500
830.087006	13.513334	32.281250
820.079029	14.042339	32.500000
810.082972	14.516024	32.734375
800.090015	14.833334	32.953125
790.076971	15.274970	33.187500
780.084014	15.680701	33.406250
770.072997	16.134386	33.625000
760.083020	16.391580	33.859375
750.086010	16.783626	34.078125
740.073025	17.087836	34.312500
730.082989	17.393100	34.531250
720.086992	17.666316	34.750000
710.075974	17.942808	34.984375
700.084984	18.216960	35.203125
690.096021	18.374386	35.468750
680.082023	18.634737	35.687500
670.087993	18.874503	35.921875
660.094976	19.069005	36.140625
650.081992	19.150409	36.375000
640.091002	19.395906	36.593750
630.102992	19.620468	36.812500
620.088995	19.822105	37.046875
610.095024	19.987954	37.265625
600.103974	20.157193	37.500000
590.090990	20.285264	37.718750
580.097020	20.402691	37.937500
570.087016	20.552281	38.171875
560.093999	20.703275	38.390625
550.103009	20.852631	38.625000
540.085971	21.001637	38.843750
530.094981	21.147719	39.062500
520.099998	21.302222	39.296875
510.089993	21.472749	39.515625
500.096977	21.597778	39.750000
490.103006	21.721871	39.968750
480.096012	21.868187	40.187500
470.095992	22.006082	40.421875
460.103005	22.153333	40.640625
450.089991	22.266433	40.875000
440.097004	22.391228	41.093750
430.103004	22.501988	41.312500
420.093000	22.608303	41.546875
410.100013	22.713802	41.765625
400.101006	22.816608	42.000000
390.094995	22.921989	42.218750
380.100012	23.042573	42.437500
370.086998	23.132631	42.671875
360.089988	23.197192	42.890625
350.098014	23.257077	43.125000
340.088993	23.319065	43.343750
330.092013	23.373217	43.562500
320.098013	23.410059	43.796875
310.086995	23.453333	44.015625
300.094008	23.523743	44.250000
290.098011	23.619999	44.468750
280.086011	23.690526	44.687500
270.089000	23.749475	44.921875
260.098010	23.811579	45.140625
250.084996	23.878128	45.375000
240.089998	23.916843	45.593750
230.100006	23.950877	45.812500
220.088005	23.980467	46.046875
210.095003	24.018363	46.265625
200.097993	24.026083	46.500000
190.088004	24.046199	46.718750
180.094004	24.051346	46.937500
170.083001	24.066432	47.171875
160.089001	24.074620	47.390625
150.091007	24.067134	47.625000
140.081003	24.072867	47.843750
130.087003	24.066432	48.062500
120.090000	24.064678	48.296875
110.073000	24.056141	48.515625
100.080997	24.066900	48.750000
90.085402	24.093334	48.968750
80.075704	24.113801	49.187500
70.078000	24.119299	49.421875
60.084201	24.120936	49.640625
50.074600	24.116375	49.875000
40.079601	24.110643	50.093750
30.084999	24.120702	50.312500
20.069700	24.132983	50.578125
10.077600	24.130644	50.812500
0.074148	24.125380	51.031250
-9.922500	24.125849	51.265625
-19.917700	24.120585	51.484375
-29.918300	24.115204	51.703125
-39.928999	24.110174	51.937500
-49.928799	24.103042	52.156250
